Sensor Model:  QMCI 2 Wire Block                     
Serial Number:  158
Data Format:    2      (Volts vs. Kelvin)                     
SetPoint Limit: 475.0      (Kelvin)                     
Temperature coefficient:  1 (Negative)                     
Number of Breakpoints:   179

 No.   Units      Temperature (K)
1	0.59233	292.00
2	0.59686	290.00
3	0.60130	288.00
4	0.60573	286.00
5	0.61022	284.00
6	0.61481	282.00
7	0.61915	280.00
8	0.62352	278.00
9	0.62808	276.00
10	0.63253	274.00
11	0.63672	272.00
12	0.64125	270.00
13	0.64580	268.00
14	0.65011	266.00
15	0.65462	264.00
16	0.65904	262.00
17	0.66346	260.00
18	0.66791	258.00
19	0.67228	256.00
20	0.67664	254.00
21	0.68100	252.00
22	0.68532	250.00
23	0.68978	248.00
24	0.69413	246.00
25	0.69862	244.00
26	0.70293	242.00
27	0.70742	240.00
28	0.71167	238.00
29	0.71604	236.00
30	0.72036	234.00
31	0.72453	232.00
32	0.72890	230.00
33	0.73328	228.00
34	0.73766	226.00
35	0.74195	224.00
36	0.74625	222.00
37	0.75059	220.00
38	0.75492	218.00
39	0.75913	216.00
40	0.76339	214.00
41	0.76775	212.00
42	0.77207	210.00
43	0.77632	208.00
44	0.78055	206.00
45	0.78485	204.00
46	0.78896	202.00
47	0.79329	200.00
48	0.79753	198.00
49	0.80184	196.00
50	0.80600	194.00
51	0.81024	192.00
52	0.81437	190.00
53	0.81860	188.00
54	0.82279	186.00
55	0.82706	184.00
56	0.83124	182.00
57	0.83537	180.00
58	0.83951	178.00
59	0.84355	176.00
60	0.84781	174.00
61	0.85187	172.00
62	0.85603	170.00
63	0.86019	168.00
64	0.86416	166.00
65	0.86826	164.00
66	0.87229	162.00
67	0.87643	160.00
68	0.88051	158.00
69	0.88456	156.00
70	0.88859	154.00
71	0.89256	152.00
72	0.89650	150.00
73	0.90056	148.00
74	0.90456	146.00
75	0.90852	144.00
76	0.91248	142.00
77	0.91637	140.00
78	0.92030	138.00
79	0.92417	136.00
80	0.92809	134.00
81	0.93195	132.00
82	0.93583	130.00
83	0.93962	128.00
84	0.94346	126.00
85	0.94723	124.00
86	0.95105	122.00
87	0.95477	120.00
88	0.95853	118.00
89	0.96226	116.00
90	0.96598	114.00
91	0.96966	112.00
92	0.97332	110.00
93	0.97696	108.00
94	0.98061	106.00
95	0.98419	104.00
96	0.98776	102.00
97	0.99136	100.00
98	0.99489	98.00
99	0.99838	96.00
100	1.00192	94.00
101	1.00542	92.00
102	1.00889	90.00
103	1.01232	88.00
104	1.01582	86.00
105	1.01924	84.00
106	1.02265	82.00
107	1.02609	80.00
108	1.02950	78.00
109	1.03289	76.00
110	1.03630	74.00
111	1.03969	72.00
112	1.04307	70.00
113	1.04476	69.00
114	1.04645	68.00
115	1.04812	67.00
116	1.04977	66.00
117	1.05150	65.00
118	1.05321	64.00
119	1.05483	63.00
120	1.05659	62.00
121	1.05824	61.00
122	1.05993	60.00
123	1.06164	59.00
124	1.06324	58.00
125	1.06494	57.00
126	1.06656	56.00
127	1.06822	55.00
128	1.06983	54.00
129	1.07147	53.00
130	1.07305	52.00
131	1.07461	51.00
132	1.07619	50.00
133	1.07771	49.00
134	1.07925	48.00
135	1.08079	47.00
136	1.08232	46.00
137	1.08382	45.00
138	1.08533	44.00
139	1.08682	43.00
140	1.08829	42.00
141	1.09135	40.00
142	1.09270	39.00
143	1.09422	38.00
144	1.09573	37.00
145	1.09719	36.00
146	1.09870	35.00
147	1.10024	34.00
148	1.10180	33.00
149	1.10336	32.00
150	1.10496	31.00
151	1.10664	30.00
152	1.10840	29.00
153	1.11028	28.00
154	1.11250	27.00
155	1.11521	26.00
156	1.11860	25.00
157	1.12398	24.00
158	1.13342	23.00
159	1.15189	22.00
160	1.17755	21.00
161	1.19948	20.00
162	1.21864	19.00
163	1.23723	18.00
164	1.25567	17.00
165	1.27499	16.00
166	1.29535	15.00
167	1.31753	14.00
168	1.34099	13.00
169	1.36716	12.00
170	1.39657	11.00
171	1.43037	10.00
172	1.47114	9.00
173	1.51863	8.00
174	1.57433	7.00
175	1.63212	6.00
176	1.68736	5.00
177	1.73548	4.00
178	1.77431	3.00
179	1.80022	2.00
